alt,temp,pres
69999.7917410017,-47.7425384521484,0
69989.5706896895,-47.6708755493164,0
69979.2996695879,-47.6004486083984,0
69966.3905114277,-47.5141487121582,0
69958.6073846448,-47.4632873535156,0
69948.1865272569,-47.3965377807617,0
69937.7153627677,-47.3310012817383,0
69929.829388657,-47.2826347351074,0
69919.2706789256,-47.2191886901855,0
69908.6621347629,-47.1569366455078,0
69898.0033527649,-47.0958671569824,0
69889.9768162664,-47.0508270263672,0
69879.2302851985,-46.9918022155762,0
69868.4339890899,-46.9339485168457,0
69857.587927877,-46.8772315979004,0
69849.4202217548,-46.8354415893555,0
69838.4863420709,-46.7807235717773,0
69827.5023590957,-46.7271385192871,0
69819.2314674999,-46.6876831054688,0
69808.1602774475,-46.636058807373,0
69799.8237767058,-46.598072052002,0
69788.6647029514,-46.5483856201172,0
69777.4556603909,-46.4997978210449,0
69766.1963800424,-46.4523048400879,0
69757.7191825139,-46.4173927307129,0
69749.2136833152,-46.3830986022949,0
69737.8293462633,-46.3383026123047,0
69729.2581034823,-46.3054161071777,0
69717.7864248459,-46.2625007629395,0
69709.149573035,-46.2310066223145,0
69697.5903489258,-46.1899337768555,0
69688.8877533989,-46.1598205566406,0
69677.2407109203,-46.1205825805664,0
69668.472371867,-46.0918350219727,0
69659.6762039413,-46.0636711120605,0
69647.9038358181,-46.0270118713379,0
69639.0417897413,-46.0001907348633,0
69627.1820106887,-45.9653205871582,0
69618.2540173234,-45.9398307800293,0
69609.2982644109,-45.9149055480957,0
69597.3132941931,-45.8825531005859,0
69588.2915937945,-45.858943939209,0
69579.2417263363,-45.8358955383301,0
69567.1316342081,-45.8060264587402,0
69558.0160232099,-45.7842750549316,0
69548.8723142825,-45.7630729675293,0
69539.7006421142,-45.7424201965332,0
69527.4277129312,-45.7157363891602,0
69518.1899589039,-45.6963500976563,0
69508.9245797523,-45.6775093078613,0
69499.6305607955,-45.6592102050781,0
69487.1948638712,-45.6356430053711,0
69477.8352357274,-45.618595123291,0
69468.4473752854,-45.6020774841309,0
69459.0313477133,-45.5860939025879,0
69449.587222336,-45.5706329345703,0
69436.9511119724,-45.5508422851563,0
69427.4413774019,-45.5366096496582,0
69417.9032067093,-45.5228996276855,0
69408.3370034455,-45.5097045898438,0
69398.7425678123,-45.4970321655273,0
69389.1199651782,-45.4848709106445,0
69379.4689264195,-45.4732246398926,0
69369.7899242138,-45.4620933532715,0
69356.8409396298,-45.4480361938477,0
69347.096193858,-45.4380836486816,0
69337.3231465211,-45.428638458252,0
69327.5221358015,-45.4196968078613,0
69317.6926890864,-45.4112548828125,0
69307.835413417,-45.4033164978027,0
69297.9497016842,-45.3958702087402,0
69288.035688317,-45.3889236450195,0
69278.0937116314,-45.3824729919434,0
69268.1232988804,-45.3765106201172,0
69258.1249226759,-45.3710441589355,0
69248.0982449015,-45.3660659790039,0
69238.0434692424,-45.3615760803223,0
69227.9605265099,-45.3575706481934,0
69217.8491477089,-45.3540382385254,0
69207.7098055861,-45.3509941101074,0
69197.5421618241,-45.3484306335449,0
69187.3462163543,-45.3463439941406,0
69177.1223076289,-45.3447341918945,0
69166.8701665163,-45.3436050415039,0
69156.5897238295,-45.3429489135742,0
69149.7203640664,-45.3427696228027,0
69139.3930006049,-45.3428955078125,0
69129.0374700662,-45.3434906005859,0
69118.6535033172,-45.344554901123,0
69108.2415732417,-45.3460884094238,0
69097.8013415892,-45.348087310791,0
69087.3326737239,-45.3505477905273,0
69076.8360425991,-45.3534698486328,1.00014335188663E-06
69069.8226034221,-45.3556747436523,1.00154722516857E-06
69059.2788476957,-45.3593597412109,1.00366146744984E-06
69048.706994141,-45.3635063171387,1.00578582490969E-06
69038.1068390064,-45.3681144714355,1.00792038393233E-06
69027.4785860425,-45.373176574707,1.01006514919833E-06
69016.822031429,-45.3786926269531,1.01222020781889E-06
69009.7018855906,-45.3826179504395,1.01366266572708E-06
68998.9984101899,-45.3888854980469,1.01583493266078E-06
68988.2666331381,-45.3955993652344,1.01801761703603E-06
68977.506758254,-45.402759552002,1.0202107243848E-06
68966.7185817867,-45.4103698730469,1.02241434350004E-06
68959.5107559151,-45.4156951904297,1.02388928326768E-06
68948.6754548366,-45.4240493774414,1.02611051890641E-06
68937.8119214234,-45.4328422546387,1.02834237980078E-06
68926.9202208562,-45.442081451416,1.03058490085835E-06
68919.6433341525,-45.448486328125,1.03208588275419E-06
68908.7045783587,-45.4584541320801,1.03434630155677E-06
68897.7376554097,-45.468864440918,1.03661751070342E-06
68886.7422963033,-45.4797096252441,1.03889961539835E-06
68879.396552443,-45.4871826171875,1.0404270352222E-06
68868.3542726071,-45.4987602233887,1.0427273116125E-06
68857.2836911133,-45.5107688903809,1.04503858892377E-06
68849.8875056228,-45.5190124511719,1.04658559268493E-06
68838.7702070774,-45.53173828125,1.04891522254299E-06
68827.6242686211,-45.5448951721191,1.05125605956076E-06
68816.4503668254,-45.5584869384766,1.05360801302727E-06
68808.9853241683,-45.5677757263184,1.05518223365038E-06
68797.7641633165,-45.5820808410645,1.05755296680887E-06
68786.5149046222,-45.5968132019043,1.05993498277812E-06
68778.9997585804,-45.6068649291992,1.06152929386504E-06
68767.7033753294,-45.6222991943359,1.06393029345339E-06
68756.378759662,-45.6381568908691,1.06634274476589E-06
68748.8133756607,-45.6489639282227,1.06795742449422E-06
68737.4416354339,-45.6655235290527,1.07038909556149E-06
68729.8449708684,-45.6767997741699,1.07201660899942E-06
68718.4263099004,-45.6940612792969,1.07446760548741E-06
68706.9792128344,-45.7117385864258,1.07693033051322E-06
68699.332310234,-45.7237548828125,1.07857862689803E-06
68687.838292283,-45.742130279541,1.08106091937755E-06
68676.3158381614,-45.7609176635742,1.08355508713776E-06
68668.6188321672,-45.7736740112305,1.08522439767851E-06
68657.0494572993,-45.7931518554688,1.08773837865162E-06
68649.3208325554,-45.8063659667969,1.08942102311994E-06
68637.7044023655,-45.826530456543,1.09195500221321E-06
68629.9444969806,-45.840202331543,1.09365101146121E-06
68618.280942151,-45.8610534667969,1.09620516105818E-06
68606.5892894694,-45.8823127746582,1.09877145030873E-06
68598.7790116781,-45.8967056274414,1.10048913357001E-06
68587.0403709927,-45.9186363220215,1.10307581810281E-06
68579.1986089515,-45.9334869384766,1.10480718706303E-06
68567.4127091183,-45.9560966491699,1.10741448816457E-06
68559.5398702511,-45.9713935852051,1.10915956083753E-06
68547.7067785917,-45.9946784973145,1.11178762677656E-06
68539.8026591493,-46.010425567627,1.11354655713015E-06
68527.9225122291,-46.0343856811523,1.11619552223513E-06
68519.9867067775,-46.0505828857422,1.11796851097539E-06
68508.0595717755,-46.0751991271973,1.12063852654611E-06
68496.1041350251,-46.1002235412598,1.1233212772199E-06
68488.1182260222,-46.1171264648438,1.1251168590747E-06
68476.1155975115,-46.1428108215332,1.12782097536614E-06
68468.0982734963,-46.16015625,1.12963084725046E-06
68456.0486569713,-46.1865081787109,1.13235645388918E-06
68447.9998487005,-46.2042961120605,1.13418074583219E-06
68439.9385154994,-46.2222595214844,1.13601082250308E-06
68427.8229534777,-46.2495269775391,1.13876684214429E-06
68419.7301359476,-46.2679214477539,1.14061150104399E-06
68407.5675185109,-46.295841217041,1.14338944264609E-06
68399.4433532172,-46.3146781921387,1.14524876975157E-06
68387.2335440136,-46.3432540893555,1.14804884098914E-06
68379.078030883,-46.3625221252441,1.14992295448987E-06
68366.8210298391,-46.3917465209961,1.15274533383946E-06
68358.6341688703,-46.4114456176758,1.15463435308841E-06
68346.3301124056,-46.4413223266602,1.15747918921215E-06
68338.1116999231,-46.4614524841309,1.15938328192985E-06
68329.8808298323,-46.4817543029785,1.16129340032902E-06
68317.5108951834,-46.5125312805176,1.16416998187005E-06
68309.2484735051,-46.533260345459,1.16609534490823E-06
68296.8314162504,-46.5646705627441,1.16899483826963E-06
68288.53764673,-46.5858268737793,1.17093552213607E-06
68276.0733975547,-46.6178779602051,1.17385812985854E-06
68267.7482130101,-46.6394653320313,1.17581427504673E-06
68259.4103671093,-46.6612129211426,1.17777666244813E-06
68246.8799687427,-46.6941604614258,1.18073196616986E-06
68238.5109787427,-46.7163391113281,1.18270992786687E-06
68225.9335921246,-46.7499160766602,1.18568875288518E-06
68217.5329486592,-46.7725105285645,1.18768253701906E-06
68209.1198475823,-46.7952728271484,1.18968263789962E-06
68196.4764482598,-46.8297386169434,1.19269477118831E-06
68188.0318975351,-46.8529243469238,1.19471082747808E-06
68179.574720072,-46.876277923584,1.19673331374658E-06
68166.865340456,-46.91162109375,1.1997791307495E-06
68158.3767804505,-46.9353942871094,1.20181774017581E-06
68149.8755937057,-46.9593353271484,1.20386285368197E-06
68137.1002686323,-46.9955558776855,1.20694273451597E-06
68128.5676668554,-47.0199089050293,1.20900416529788E-06
68115.7451846146,-47.0567474365234,1.21210863118183E-06
68107.1812003661,-47.0815162658691,1.21418650600872E-06
68098.6046566314,-47.1064529418945,1.21627099800666E-06
68085.7161269075,-47.1441612243652,1.21941023126233E-06
68077.1080661914,-47.1695098876953,1.22151139089722E-06
68068.4874459883,-47.1950225830078,1.22361924463185E-06
68059.854266298,-47.2206993103027,1.22573381461626E-06
68046.8810027393,-47.2595176696777,1.22891829771133E-06
68038.2163733939,-47.2856025695801,1.23104976832851E-06
68029.5391171582,-47.3118515014648,1.23318805009067E-06
68016.4998060344,-47.3515319824219,1.2364082316943E-06
68007.7911001418,-47.3781929016113,1.23856361133797E-06
67999.0699366332,-47.4050140380859,1.24072583965974E-06
67985.964510909,-47.4455490112305,1.24398215340225E-06
67977.2118304879,-47.4727745056152,1.2461616961787E-06
67968.4466577577,-47.5001640319824,1.24834817661122E-06
67959.6687563371,-47.527717590332,1.25054167692862E-06
67946.4784274879,-47.5693397521973,1.25384504345546E-06
67937.6691782792,-47.5972938537598,1.25605607733098E-06
67928.8473695809,-47.6254081726074,1.25827417080219E-06
67915.5909933783,-47.6678848266602,1.26161462823821E-06
67906.7377350186,-47.6963958740234,1.26385048716983E-06
67897.871849839,-47.7250709533691,1.26609350587873E-06
67888.9934050938,-47.75390625,1.26834369135033E-06
67875.6520238835,-47.7974586486816,1.27173250182126E-06
67866.7420622201,-47.8266944885254,1.27400073978111E-06
67857.8195410654,-47.8560905456543,1.27627622919917E-06
67848.8843931643,-47.8856506347656,1.27855901166696E-06
67839.9367530267,-47.9153633117676,1.28084907731167E-06
67826.491680523,-47.9602317810059,1.2842979339904E-06
67817.5125233897,-47.9903450012207,1.2866063887602E-06
67804.0203954167,-48.0358123779297,1.29008288880061E-06
67799.5166323677,-48.0510520935059,1.29124545784514E-06
67785.9864876631,-48.096996307373,1.29474433732538E-06
67776.9507964191,-48.1278190612793,1.29708623477001E-06
67767.9024438104,-48.1588020324707,1.29943565869499E-06
67758.8415317086,-48.18994140625,1.30179260811953E-06
67749.7679927073,-48.2212409973145,1.30415712612688E-06
67736.1341566185,-48.268482208252,1.30771811181034E-06
67727.0291679472,-48.3001747131348,1.31010163306509E-06
67717.9115179104,-48.3320198059082,1.31249282224704E-06
67708.7813429959,-48.3640213012695,1.31489166957964E-06
67699.6386085871,-48.3961791992188,1.31729821020892E-06
67685.9008773625,-48.4447135925293,1.32092252466767E-06
67676.7265240029,-48.4772605895996,1.32334847163829E-06
67667.5397130959,-48.5099639892578,1.32578217718887E-06
67658.3403426178,-48.5428237915039,1.32822369482827E-06
67649.128345389,-48.5758438110352,1.3306730690989E-06
67639.903788665,-48.609016418457,1.33313030893957E-06
67626.0433067331,-48.6590576171875,1.3368310016222E-06
67616.7872330023,-48.6926155090332,1.33930805495838E-06
67607.5185997755,-48.7263298034668,1.34179306854394E-06
67598.237305105,-48.760196685791,1.34428609705394E-06
67588.9435528859,-48.7942161560059,1.34678711309713E-06
67579.6370047106,-48.8283843994141,1.34929623533083E-06
67565.6538065991,-48.8799362182617,1.35307501212249E-06
67556.3159106177,-48.914493560791,1.35560434799994E-06
67546.9653531916,-48.9492034912109,1.35814185122942E-06
67532.915973024,-49.0015487670898,1.36196342803361E-06
67528.226594386,-49.0190773010254,1.36324137966158E-06
67518.8382238789,-49.0542488098145,1.36580350736327E-06
67509.43736113,-49.0895729064941,1.36837386923237E-06
67495.3123875159,-49.1428451538086,1.37224498355829E-06
67485.8800078303,-49.1785430908203,1.3748361340041E-06
67476.4351031844,-49.2143936157227,1.37743562766747E-06
67466.9775370919,-49.2504005432129,1.3800435310306E-06
67457.5073442444,-49.2865562438965,1.38265986364275E-06
67448.0245918978,-49.322868347168,1.38528463607746E-06
67438.5292800523,-49.3593292236328,1.38791787755535E-06
67429.02123958,-49.395938873291,1.39055966445284E-06
67419.5006742228,-49.4326972961426,1.39320996972774E-06
67409.9675146745,-49.4696083068848,1.39586884225452E-06
67395.6440621904,-49.525260925293,1.39987330750223E-06
67386.0793183667,-49.5625457763672,1.40255375638143E-06
67376.5021169136,-49.599983215332,1.40524283892406E-06
67366.9121868325,-49.6375694274902,1.40794066140588E-06
67357.309697251,-49.6753044128418,1.4106472066393E-06
67347.694580912,-49.7131881713867,1.41336252401432E-06
67338.0669722515,-49.7512283325195,1.41608660606913E-06
67328.4266348849,-49.7894096374512,1.41881955039915E-06
67309.1083162618,-49.8662185668945,1.42431199567917E-06
67309.1083162618,-49.8662185668945,1.42431199567917E-06
67299.4303350049,-49.9048461914063,1.42707155847849E-06
67289.7396251187,-49.9436225891113,1.42984010782629E-06
67275.1800153037,-50.002067565918,1.43400975854466E-06
67265.4578902631,-50.0412178039551,1.4368007955844E-06
67255.7231037716,-50.0805130004883,1.43960091034857E-06
67245.9757577777,-50.1199569702148,1.44241010531326E-06
67236.2159541517,-50.1595497131348,1.44522838287878E-06
67226.4433546379,-50.199291229248,1.4480558728113E-06
67216.6580937508,-50.2391777038574,1.45089256858726E-06
67206.8602733605,-50.2792129516602,1.45373847300277E-06
67197.0499952593,-50.319393157959,1.45659358877776E-06
67187.2271576547,-50.3597221374512,1.45945797795677E-06
67177.3916259537,-50.4001960754395,1.46233171254419E-06
67167.5434328783,-50.4408149719238,1.46521481595873E-06
67157.6827820911,-50.4815788269043,1.46810726148813E-06
67147.8094027501,-50.5224914550781,1.47100916168414E-06
67137.9235656968,-50.5635452270508,1.4739204701848E-06
67128.0250000112,-50.6047554016113,1.47684130015312E-06
67113.1536064526,-50.6668319702148,1.48124037659197E-06
67108.190190047,-50.6875953674316,1.48271150921354E-06
67098.2538784322,-50.7292327880859,1.48566097564438E-06
67088.3050073906,-50.7710151672363,1.48862004850485E-06
67078.3434748948,-50.8129425048828,1.49158879224569E-06
67068.369417506,-50.8550148010254,1.49456720038394E-06
67058.3828006116,-50.8972320556641,1.49755531752102E-06
67048.3836241325,-50.9395904541016,1.50055317811873E-06
67038.3718208895,-50.9820976257324,1.50356083695935E-06
67028.3473908826,-51.0247459411621,1.50657832888824E-06
67018.3105704972,-51.0675430297852,1.50960561752535E-06
67008.2609032055,-51.110481262207,1.51264287568753E-06
66998.1987945999,-51.1535606384277,1.51569001610602E-06
66988.1239918926,-51.1967849731445,1.51874715065168E-06
66978.036696936,-51.2401542663574,1.52181425358493E-06
66967.9367752143,-51.2836647033691,1.52489140140281E-06
66957.824293985,-51.327320098877,1.52797860942019E-06
66947.6992368461,-51.3711128234863,1.53107591855222E-06
66937.5616201992,-51.4150505065918,1.53418335983821E-06
66927.4113767863,-51.4591293334961,1.53730099014844E-06
66917.2486247211,-51.5033493041992,1.54042880956121E-06
66907.0733131473,-51.5477104187012,1.54356687017332E-06
66896.8853748069,-51.5922164916992,1.54671522943435E-06
66886.6849278929,-51.6368637084961,1.54987388763095E-06
66876.4718542118,-51.6816482543945,1.55304291832747E-06
66866.2463392148,-51.7265739440918,1.55622230103413E-06
66856.008197371,-51.7716407775879,1.55941213064592E-06
66845.7575468732,-51.8168487548828,1.56261240776573E-06
66835.4943878006,-51.8621978759766,1.56582316983836E-06
66825.2186019601,-51.9076919555664,1.56904449157907E-06
66814.9302566097,-51.9533233642578,1.57227638984904E-06
66809.7813955048,-51.9761924743652,1.57389631033131E-06
66799.4743127592,-52.0220375061035,1.57714411262045E-06
66789.1547213583,-52.0680236816406,1.58040257062565E-06
66778.822570447,-52.1141471862793,1.58367173879015E-06
66768.4778945565,-52.1604080200195,1.5869516447494E-06
66758.1207610246,-52.2068099975586,1.59024230577484E-06
66747.7511352405,-52.2533531188965,1.59354377161328E-06
66737.3689336216,-52.3000335693359,1.59685610790447E-06
66726.9743252156,-52.346851348877,1.60017929982181E-06
66716.567208313,-52.3938102722168,1.60351341908454E-06
66706.1477008669,-52.4409065246582,1.60685846725336E-06
66695.7156848436,-52.4881362915039,1.61021452173476E-06
66685.2711439192,-52.5355072021484,1.61358162759365E-06
66674.8142125306,-52.5830192565918,1.61695978135039E-06
66669.5810920752,-52.6068267822266,1.61865301634853E-06
66659.1054741419,-52.6545448303223,1.62204784951934E-06
66648.6174495001,-52.7024002075195,1.62545383604265E-06
66638.1170854085,-52.7503929138184,1.62887099434784E-06
66627.6042636734,-52.7985153198242,1.63229940339069E-06
66617.0789841336,-52.8467750549316,1.6357391040062E-06
66606.541449788,-52.8951721191406,1.6391900705965E-06
66595.9915422819,-52.9437103271484,1.64265238274717E-06
66585.4293126306,-52.9923858642578,1.64612606478091E-06
66574.8547097371,-53.0411949157715,1.64961117473875E-06
66569.5628044232,-53.0656509399414,1.65135801621696E-06
66558.9696841909,-53.1146659851074,1.65486033175632E-06
66548.3642418933,-53.163818359375,1.6583741621653E-06
66537.7465109172,-53.2131042480469,1.66189953813418E-06
66527.1165087289,-53.2625274658203,1.66543649573608E-06
66516.4740824437,-53.312084197998,1.66898512803182E-06
66505.8193340115,-53.3617744445801,1.67254544344835E-06
66495.1522633509,-53.4115982055664,1.67611748450264E-06
66489.8141663942,-53.4365615844727,1.67790789560103E-06
66479.1287138101,-53.4865913391113,1.68149757101927E-06
66468.4309054485,-53.536750793457,1.68509909023871E-06
66457.7208084873,-53.5870475769043,1.6887124737571E-06
66446.998440231,-53.6374740600586,1.69233775893864E-06
66436.2637834558,-53.6880340576172,1.69597499498963E-06
66425.5168045319,-53.7387351989746,1.69962423692471E-06
66414.7575032964,-53.7895698547363,1.70328552863849E-06
66409.3732656247,-53.8150329589844,1.70512069538135E-06
66398.5955234474,-53.8660621643066,1.70880012980554E-06
66387.8054845876,-53.9172286987305,1.71249171557123E-06
66377.0031825121,-53.9685325622559,1.71619548561964E-06
66366.1885919163,-54.019962310791,1.71991149319497E-06
66355.3616710078,-54.0715217590332,1.72363979748715E-06
66349.9436066846,-54.0973510742188,1.72550856807586E-06
66339.0983120105,-54.149112701416,1.72925535989179E-06
66328.2407124086,-54.2010040283203,1.73301455245894E-06
66317.3708579154,-54.2530288696289,1.7367861738772E-06
66306.4887067383,-54.3051795959473,1.740570284253E-06
66295.5942842626,-54.3574638366699,1.74436692057417E-06
66284.6876577475,-54.4098777770996,1.74817610530304E-06
66279.2297151532,-54.4361343383789,1.75008543618186E-06
66268.3046221433,-54.4887466430664,1.75391358618358E-06
66257.3672915456,-54.5414924621582,1.75775441203881E-06
66246.4176978107,-54.5943641662598,1.76160796932913E-06
66235.4558664876,-54.6473655700684,1.76547429586809E-06
66229.9703596898,-54.6739120483398,1.76741226299825E-06
66218.990112887,-54.7271118164063,1.77129785248204E-06
66207.9976364939,-54.7804412841797,1.77519632626784E-06
66196.9928888819,-54.8339004516602,1.77910774661691E-06
66185.9759118437,-54.8874855041504,1.7830321463722E-06
66174.9466972165,-54.9412002563477,1.78696957629978E-06
66169.4275154986,-54.9681053161621,1.78894318733549E-06
66158.3799443223,-55.0220146179199,1.79290025276257E-06
66147.320110089,-55.0760536193848,1.79687047806787E-06
66136.2480636504,-55.1302185058594,1.80085389357397E-06
66125.163720442,-55.1845092773438,1.80485057852713E-06
66119.6169745156,-55.2117004394531,1.80685389903263E-06
66108.5143258556,-55.2661895751953,1.81087052971258E-06
